 TEMPERATURE 300. KELVIN
   MOLEFRAC        GAMMA1         GAMMA2         LNGAMMA1       LNGAMMA2
         X1     BENZENE          TOLUENE          BENZENE          TOLUENE     
 0. 1.0085844 0.9999989 0.008547755 -0.0000010691734
 0.01 1.0084624 1.0000017 0.008426784 0.0000016744214
 0.02 1.0083406 1.0000008 0.008305956 7.995386E-7
 0.03 1.008219 1.0000076 0.008185396 0.000007655237
 0.04 1.0080955 1.0000082 0.008062907 0.000008218462
 0.049999997 1.0079758 1.0000163 0.007944186 0.000016373742
 0.059999995 1.0078537 1.0000212 0.007823075 0.00002116917
 0.06999999 1.0077335 1.0000311 0.0077037616 0.00003114501
 0.07999999 1.0076103 1.000037 0.0075815413 0.000036963153
 0.08999999 1.0074914 1.0000503 0.0074633854 0.000050358354
 0.09999999 1.0073708 1.0000639 0.007343759 0.00006385439
 0.109999985 1.0072505 1.0000769 0.0072244303 0.00007692085
 0.11999998 1.007132 1.0000935 0.0071067526 0.00009341984
 0.12999998 1.007009 1.0001109 0.0069846082 0.00011082487
 0.13999999 1.0068889 1.0001296 0.006865221 0.00012951417
 0.14999999 1.0067698 1.0001493 0.006746944 0.00014923794
 0.16 1.00665 1.000171 0.006627919 0.00017092735
 0.17 1.0065318 1.0001947 0.006510572 0.00019468997
 0.18 1.0064143 1.0002213 0.0063937563 0.00022122762
 0.19000001 1.0062927 1.0002456 0.0062730405 0.00024556887
 0.20000002 1.006175 1.0002732 0.0061560934 0.00027320796
 0.21000002 1.0060575 1.0003048 0.00603919 0.00030478436
 0.22000003 1.0059434 1.0003388 0.0059257774 0.00033871346
 0.23000003 1.0058231 1.0003679 0.0058062677 0.00036778327
 0.24000004 1.005707 1.0004045 0.005690827 0.00040439458
 0.25000003 1.0055912 1.0004433 0.0055756387 0.0004432314
 0.26000002 1.0054736 1.0004805 0.0054586465 0.00048039094
 0.27 1.00536 1.0005249 0.0053456444 0.0005246956
 0.28 1.0052456 1.0005687 0.0052318852 0.0005685378
 0.29 1.0051303 1.000613 0.0051171286 0.0006128395
 0.29999998 1.0050192 1.0006629 0.0050065843 0.000662705
 0.30999997 1.0049046 1.0007087 0.0048926184 0.00070844643
 0.31999996 1.0047925 1.0007615 0.004781054 0.0007612158
 0.32999995 1.0046802 1.0008163 0.004669247 0.0008160561
 0.33999994 1.0045689 1.000873 0.0045585185 0.0008725389
 0.34999993 1.0044585 1.0009313 0.0044485833 0.00093082327
 0.35999992 1.0043473 1.000989 0.0043378593 0.0009884933
 0.36999992 1.0042355 1.00105 0.004226594 0.001049422
 0.3799999 1.0041279 1.0011185 0.0041193394 0.001117876
 0.3899999 1.0040222 1.001189 0.0040141996 0.0011882365
 0.3999999 1.0039135 1.001255 0.0039058393 0.0012542772
 0.40999988 1.0038077 1.0013279 0.0038004252 0.001327002
 0.41999987 1.0037007 1.0014043 0.0036939434 0.0014032503
 0.42999986 1.0035949 1.0014793 0.0035884865 0.0014782004
 0.43999985 1.0034921 1.0015603 0.003485982 0.0015590945
 0.44999984 1.0033895 1.0016435 0.003383696 0.0016421359
 0.45999983 1.0032858 1.0017267 0.003280335 0.0017252405
 0.46999982 1.0031873 1.0018198 0.0031822626 0.0018181416
 0.4799998 1.0030831 1.0019046 0.0030783238 0.0019027585
 0.4899998 1.0029838 1.0020003 0.0029794 0.0019982974
 0.4999998 1.0028862 1.0020977 0.002882066 0.0020955512
 0.5099998 1.0027896 1.0021976 0.0027857688 0.0021952686
 0.5199998 1.0026926 1.0022992 0.0026889113 0.0022965986
 0.5299998 1.0025985 1.0024043 0.0025951895 0.0024014616
 0.5399998 1.0025022 1.0025115 0.0024990384 0.0025083246
 0.5499998 1.0024086 1.0026225 0.0024057846 0.0026190132
 0.55999976 1.0023167 1.0027372 0.0023140814 0.0027334415
 0.56999975 1.002227 1.0028567 0.002224467 0.0028526632
 0.57999974 1.0021384 1.0029793 0.0021361376 0.002974797
 0.58999974 1.0020504 1.0031028 0.0020483006 0.0030980005
 0.5999997 1.0019634 1.0032282 0.0019614683 0.0032229545
 0.6099997 1.0018791 1.0033611 0.0018772881 0.0033554202
 0.6199997 1.0017935 1.0034943 0.0017919429 0.003488197
 0.6299997 1.0017093 1.0036312 0.0017078843 0.0036246232
 0.6399997 1.0016285 1.0037742 0.0016272427 0.003767051
 0.6499997 1.0015507 1.0039203 0.0015494578 0.003912594
 0.65999967 1.0014716 1.0040692 0.00147056 0.0040609688
 0.66999966 1.0013965 1.0042247 0.0013955976 0.0042157527
 0.67999965 1.0013225 1.004381 0.0013216516 0.004371356
 0.68999964 1.0012473 1.0045408 0.0012465455 0.004530522
 0.69999963 1.0011744 1.0047034 0.0011737908 0.004692346
 0.7099996 1.0011058 1.0048751 0.001105233 0.004863252
 0.7199996 1.0010374 1.0050485 0.0010368633 0.005035845
 0.7299996 1.0009679 1.0052189 0.00096733565 0.0052052736
 0.7399996 1.0009048 1.0054021 0.0009044199 0.0053875004
 0.7499996 1.0008415 1.0055879 0.00084116776 0.0055723293
 0.7599996 1.0007795 1.0057749 0.00077917054 0.005758254
 0.76999956 1.00072 1.0059694 0.00071976404 0.0059516374
 0.77999955 1.0006645 1.0061687 0.00066427514 0.006149778
 0.78999954 1.0006094 1.0063739 0.00060924154 0.006353679
 0.79999954 1.0005567 1.0065813 0.0005565415 0.006559703
 0.8099995 1.0005028 1.0067906 0.00050266966 0.0067677256
 0.8199995 1.0004568 1.00701 0.00045672304 0.0069855135
 0.8299995 1.0004073 1.0072304 0.0004072233 0.0072043734
 0.8399995 1.0003642 1.0074567 0.00036405926 0.007428979
 0.8499995 1.000324 1.0076885 0.00032399182 0.0076591275
 0.8599995 1.0002825 1.0079241 0.00028250998 0.007892836
 0.86999947 1.0002447 1.0081658 0.00024466816 0.008132705
 0.87999946 1.0002081 1.0084122 0.00020808529 0.008377088
 0.88999945 1.0001781 1.0086654 0.00017807867 0.008628132
 0.89999944 1.0001466 1.008923 0.00014664691 0.00888345
 0.90999943 1.0001229 1.0091903 0.0001228595 0.009148372
 0.9199994 1.000095 1.0094522 0.00009499115 0.009407844
 0.9299994 1.0000734 1.0097296 0.00007342064 0.009682544
 0.9399994 1.0000566 1.010012 0.000056576275 0.009962285
 0.9499994 1.0000389 1.0102968 0.000038833965 0.010244229
 0.9599994 1.0000255 1.0105883 0.000025536694 0.010532594
 0.9699994 1.0000119 1.0108827 0.000011889014 0.010823937
 0.97999936 1.0000069 1.0111895 0.000006943497 0.01112731
 0.98999935 1.0000011 1.011499 0.0000011165441 0.011433404
 0.99999934 1.0000026 1.011819 0.0000026683672 0.011749718
